Angle (Deg),ABH,AMH,APH,ARH,CBB,CBH,CMB,CMH,CPH,CRB,SMN,SPN
160,0.087226,0.022503,0.510994,0.005607,0.012052,0.286911,0.112375,0.070342,0.600911,0.162019,0.752408,4.145745
158,0.071414,0.020386,0.426103,0.004998,0.010033,0.23129,0.06237,0.057455,0.503221,0.135161,0.641016,3.809421
156,0.058889,0.018055,0.357547,0.004549,0.008497,0.190463,0.036819,0.047729,0.412624,0.111803,0.56453,3.517628
154,0.050878,0.016348,0.30552,0.004178,0.007331,0.158049,0.022027,0.041046,0.345791,0.094097,0.508402,3.274585
152,0.042683,0.015049,0.258709,0.003809,0.007308,0.133653,0.014348,0.039908,0.292233,0.082729,0.465903,3.041367
150,0.036275,0.013583,0.222224,0.003531,0.006632,0.111907,0.011201,0.034654,0.245033,0.07143,0.430379,2.833945
148,0.032002,0.012236,0.219727,0.003248,0.005835,0.094936,0.008484,0.028933,0.205932,0.06089,0.402289,2.667202
146,0.028056,0.010812,0.190934,0.00298,0.005007,0.080085,0.007797,0.02866,0.175569,0.054296,0.366576,2.494351
144,0.024278,0.009483,0.165475,0.002743,0.00434,0.06763,0.007122,0.024668,0.15024,0.048169,0.334699,2.315082
142,0.021241,0.009083,0.14426,0.002617,0.003987,0.057143,0.006144,0.021543,0.128349,0.042008,0.304907,2.13642
140,0.01949,0.008204,0.125697,0.002436,0.003516,0.048643,0.005704,0.018513,0.110316,0.036902,0.273385,1.990718
138,0.01803,0.007286,0.109791,0.002211,0.003089,0.041229,0.005386,0.015907,0.095996,0.032032,0.247881,1.85343
136,0.015888,0.006653,0.096012,0.001981,0.002853,0.035262,0.004969,0.013888,0.084329,0.028758,0.222157,1.714525
134,0.013924,0.006039,0.085294,0.001827,0.002608,0.03056,0.004197,0.012235,0.072397,0.025806,0.201993,1.589447
132,0.012624,0.005398,0.073959,0.001681,0.002302,0.02595,0.003603,0.010842,0.071966,0.022431,0.181386,1.486311
130,0.011563,0.00484,0.066381,0.001588,0.002058,0.022514,0.003345,0.009666,0.064406,0.019531,0.167596,1.398677
128,0.010942,0.004351,0.060216,0.001468,0.00184,0.019638,0.002987,0.008233,0.057199,0.017856,0.154883,1.308037
126,0.009828,0.003926,0.054637,0.001376,0.001719,0.017193,0.002739,0.007294,0.051705,0.016165,0.14373,1.218239
124,0.008473,0.003642,0.049728,0.001322,0.001585,0.015295,0.002593,0.006621,0.046489,0.014564,0.133122,1.14712
122,0.008489,0.00333,0.045207,0.001267,0.001447,0.013702,0.002452,0.005881,0.046052,0.013157,0.122515,1.07874
120,0.007984,0.003151,0.041488,0.001202,0.001321,0.012351,0.002266,0.005439,0.042324,0.011645,0.112438,1.005781
118,0.007756,0.003011,0.038473,0.001126,0.001269,0.011257,0.002149,0.004967,0.038517,0.010535,0.103422,0.928058
116,0.007036,0.00279,0.035627,0.001104,0.001202,0.010217,0.001988,0.004564,0.03507,0.009917,0.095996,0.856836
114,0.006491,0.00257,0.033092,0.001066,0.001125,0.009544,0.001864,0.004225,0.032188,0.008667,0.089102,0.802637
112,0.006254,0.002459,0.030558,0.00105,0.001072,0.008445,0.001793,0.003926,0.0298,0.007993,0.081677,0.732079
110,0.005954,0.002289,0.028368,0.001022,0.001006,0.007814,0.001767,0.003627,0.027631,0.007584,0.07197,0.684814
108,0.005667,0.002121,0.025647,0.001017,0.000947,0.007236,0.001698,0.003421,0.025053,0.007195,0.064737,0.645753
106,0.005227,0.002051,0.023982,0.001012,0.000906,0.00678,0.001582,0.003251,0.023399,0.006699,0.05895,0.614538
104,0.004958,0.001981,0.022514,0.001001,0.00085,0.006275,0.001439,0.003106,0.021746,0.006112,0.055203,0.595628
102,0.004753,0.001891,0.021159,0.000984,0.000783,0.005879,0.001352,0.00298,0.020333,0.005604,0.052983,0.571553
100,0.004644,0.001876,0.019729,0.000968,0.00075,0.005534,0.001276,0.002851,0.01932,0.005314,0.051854,0.55582
98,0.004443,0.001838,0.018537,0.000952,0.000731,0.00525,0.001183,0.002696,0.018169,0.00512,0.050451,0.546181
96,0.004238,0.001764,0.017501,0.000941,0.0007,0.004981,0.001104,0.002585,0.017228,0.004806,0.048644,0.538315
94,0.003976,0.00173,0.016641,0.000935,0.000678,0.004744,0.001016,0.002488,0.016236,0.00449,0.047196,0.53017
92,0.003836,0.001677,0.015907,0.00093,0.000653,0.004504,0.000972,0.002302,0.015396,0.004322,0.045931,0.521066
90,0.003841,0.001621,0.015295,0.000914,0.000629,0.004388,0.000907,0.002246,0.014711,0.004239,0.045026,0.511555
88,0.003642,0.001588,0.014684,0.000899,0.000611,0.004191,0.000867,0.002155,0.014071,0.004139,0.044484,0.510162
86,0.003531,0.001555,0.014101,0.000892,0.000598,0.004178,0.000809,0.002096,0.013488,0.003923,0.044325,0.509826
84,0.00347,0.001503,0.013398,0.000892,0.000591,0.003932,0.000783,0.002045,0.012974,0.003705,0.044778,0.509971
82,0.003444,0.001491,0.012664,0.000881,0.000585,0.003883,0.000753,0.002001,0.012591,0.003602,0.045177,0.508727
80,0.003362,0.00149,0.012175,0.000876,0.000571,0.003907,0.000737,0.00195,0.01216,0.003529,0.045388,0.509971
78,0.003295,0.001467,0.01193,0.000881,0.000555,0.003681,0.00072,0.001904,0.012158,0.003404,0.045388,0.514707
76,0.003231,0.001459,0.011685,0.000887,0.000544,0.003667,0.000712,0.001844,0.011895,0.003292,0.044945,0.521023
74,0.003216,0.001453,0.011491,0.000885,0.000539,0.003669,0.000703,0.001811,0.011575,0.003178,0.044303,0.526293
72,0.0032,0.001463,0.011277,0.000887,0.000528,0.00356,0.000696,0.001779,0.011251,0.0031,0.04358,0.528917
70,0.003137,0.001474,0.010944,0.000887,0.000519,0.003574,0.000684,0.001751,0.010913,0.003031,0.043038,0.532718
68,0.003011,0.001452,0.010645,0.000892,0.000517,0.003523,0.000682,0.001719,0.010615,0.00292,0.042856,0.538203
66,0.00298,0.001517,0.010217,0.000881,0.000519,0.003421,0.000666,0.001686,0.010363,0.002821,0.042621,0.540732
64,0.002966,0.001462,0.00985,0.000865,0.000513,0.003423,0.000659,0.001664,0.01019,0.002738,0.042314,0.541548
62,0.003034,0.001463,0.009709,0.000865,0.000508,0.003401,0.000644,0.001664,0.010094,0.002716,0.041982,0.539961
60,0.003038,0.001458,0.009434,0.000865,0.000501,0.003374,0.000631,0.001643,0.009865,0.002696,0.041591,0.535233
58,0.002932,0.001458,0.00936,0.000876,0.00049,0.003319,0.000617,0.001643,0.009672,0.002657,0.041048,0.534643
56,0.003027,0.00141,0.009299,0.000873,0.000487,0.003315,0.000606,0.001626,0.009539,0.002609,0.040354,0.530495
54,0.002917,0.001474,0.008936,0.000881,0.000486,0.003321,0.000606,0.001583,0.009517,0.002575,0.039602,0.528498
52,0.002901,0.001436,0.009035,0.000887,0.000485,0.003266,0.000594,0.001632,0.009389,0.002538,0.038878,0.52279
50,0.002838,0.001496,0.009001,0.000883,0.00048,0.003294,0.000586,0.001632,0.009327,0.002508,0.038155,0.516287
48,0.002814,0.001464,0.008986,0.000891,0.000476,0.003336,0.000585,0.001652,0.008861,0.002506,0.037432,0.509971
46,0.002806,0.001458,0.008923,0.000902,0.000477,0.003214,0.000584,0.001643,0.008801,0.002467,0.036889,0.509495
44,0.00279,0.00149,0.008908,0.000904,0.000476,0.00335,0.000576,0.001685,0.008728,0.002438,0.036166,0.504919
42,0.00279,0.001447,0.008993,0.000906,0.000476,0.003239,0.000573,0.001699,0.008706,0.00241,0.036165,0.498913
40,0.002727,0.001474,0.009,0.000916,0.000473,0.003361,0.000571,0.001724,0.008564,0.002347,0.035623,0.492182
38,0.00279,0.001496,0.008813,0.00093,0.000474,0.003404,0.000573,0.00167,0.008451,0.002333,0.035073,0.484709
36,0.002712,0.001501,0.008831,0.000946,0.000477,0.003383,0.00057,0.00167,0.008331,0.002308,0.034378,0.478365
34,0.002806,0.001454,0.008986,0.000948,0.000482,0.003444,0.000568,0.001686,0.008394,0.002296,0.033815,0.472745
32,0.002649,0.001499,0.008742,0.00095,0.000482,0.003374,0.000565,0.00167,0.00833,0.002287,0.033812,0.467269
30,0.002716,0.001534,0.008757,0.000963,0.00048,0.003432,0.00056,0.001718,0.008276,0.002277,0.033268,0.460002
28,0.00268,0.001539,0.008876,0.000979,0.000479,0.003447,0.000556,0.001737,0.008334,0.00227,0.032549,0.454612
26,0.002587,0.001584,0.008906,0.000984,0.000478,0.003512,0.000551,0.001719,0.008261,0.002261,0.032007,0.448315
24,0.00268,0.001658,0.008799,0.000995,0.000479,0.003495,0.000547,0.001794,0.00823,0.002241,0.031735,0.441745
22,0.002538,0.001686,0.008876,0.001001,0.000479,0.003434,0.000545,0.001806,0.008334,0.002238,0.031464,0.435765
20,0.002496,0.001733,0.008641,0.00101,0.00048,0.003574,0.000542,0.001817,0.008224,0.002225,0.031103,0.431038
18,0.002504,0.001761,0.008646,0.00102,0.00048,0.00371,0.000541,0.001882,0.008362,0.002217,0.030741,0.426629
16,0.002523,0.00188,0.008751,0.001033,0.000479,0.003799,0.000541,0.001897,0.008168,0.002213,0.030741,0.423088
14,0.002538,0.001964,0.008694,0.001044,0.000482,0.003678,0.00054,0.001863,0.008232,0.002201,0.030224,0.418666
12,0.002428,0.002013,0.00878,0.001061,0.00049,0.00366,0.000541,0.001914,0.008293,0.002205,0.029836,0.41524
10,0.002475,0.00205,0.008678,0.001071,0.000491,0.003759,0.000543,0.001958,0.008167,0.002202,0.029466,0.412082
